# WINDOW NO. 1  SKIP = 5
# TIME DISTANCE ENERGY
       0.010000       4.148492      -1.138436
       0.020000       4.200468      -1.090497
       0.030000       4.241466      -1.036448
       0.040000       4.274497      -0.987996
       0.050000       4.291705      -0.961037
       0.060000       4.297820      -0.955401
       0.070000       4.289594      -0.977744
       0.080000       4.260717      -1.038448
       0.090000       4.222477      -1.109825
       0.100000       4.177479      -1.174692
       0.110000       4.115766      -1.225015
       0.120000       4.061153      -1.226271
       0.130000       4.022003      -1.195736
       0.140000       3.988567      -1.144881
       0.150000       3.974021      -1.120069
       0.160000       3.986830      -1.163832
       0.170000       4.024399      -1.245929
       0.180000       4.071200      -1.308567
       0.190000       4.122722      -1.334923
       0.200000       4.170727      -1.333768
       0.210000       4.205167      -1.318826
       0.220000       4.226006      -1.310040
       0.230000       4.227026      -1.326363
       0.240000       4.208844      -1.369584
       0.250000       4.179512      -1.425707
       0.260000       4.142912      -1.474239
       0.270000       4.094936      -1.504057
       0.280000       4.052327      -1.505909
       0.290000       4.011900      -1.481670
       0.300000       3.980521      -1.450247
       0.310000       3.967003      -1.447138
       0.320000       3.970493      -1.485714
       0.330000       4.000316      -1.586679
       0.340000       4.050706      -1.681062
       0.350000       4.102796      -1.724107
       0.360000       4.154168      -1.728722
       0.370000       4.194999      -1.714986
       0.380000       4.230073      -1.692479
       0.390000       4.240192      -1.697243
       0.400000       4.240934      -1.712835
       0.410000       4.246483      -1.722537
       0.420000       4.248000      -1.742407
       0.430000       4.237893      -1.782413
       0.440000       4.233937      -1.813538
       0.450000       4.234039      -1.836801
       0.460000       4.226240      -1.870853
       0.470000       4.199872      -1.923398
       0.480000       4.170495      -1.973390
       0.490000       4.134302      -2.017948
       0.500000       4.109202      -2.046292
       0.510000       4.096213      -2.069851
       0.520000       4.089183      -2.089396
       0.530000       4.083093      -2.112106
       0.540000       4.073312      -2.131990
       0.550000       4.066009      -2.151273
       0.560000       4.067779      -2.170876
       0.570000       4.082159      -2.193135
       0.580000       4.094273      -2.212741
       0.590000       4.107148      -2.229578
       0.600000       4.118055      -2.246557
       0.610000       4.120981      -2.266458
       0.620000       4.121675      -2.286618
       0.630000       4.127579      -2.306049
       0.640000       4.138894      -2.322891
       0.650000       4.147644      -2.341323
       0.660000       4.153828      -2.360173
       0.670000       4.141118      -2.390627
       0.680000       4.126618      -2.421207
       0.690000       4.116558      -2.451103
       0.700000       4.113740      -2.479970
       0.710000       4.112263      -2.505703
       0.720000       4.117685      -2.530179
       0.730000       4.118918      -2.557673
       0.740000       4.115468      -2.586173
       0.750000       4.111998      -2.617149
       0.760000       4.101042      -2.646291
       0.770000       4.084737      -2.672622
       0.780000       4.086444      -2.702426
       0.790000       4.104524      -2.731106
       0.800000       4.131425      -2.750525
       0.810000       4.164253      -2.757272
       0.820000       4.203394      -2.746447
       0.830000       4.246009      -2.715654
       0.840000       4.292808      -2.663528
       0.850000       4.336052      -2.605503
       0.860000       4.368160      -2.564743
       0.870000       4.395467      -2.530380
       0.880000       4.406480      -2.530736
       0.890000       4.412870      -2.536304
       0.900000       4.408053      -2.566392
       0.910000       4.392549      -2.620298
       0.920000       4.372972      -2.682485
       0.930000       4.348768      -2.751985
       0.940000       4.312706      -2.840708
       0.950000       4.268797      -2.933740
       0.960000       4.213068      -3.030006
       0.970000       4.143871      -3.110481
       0.980000       4.084106      -3.136675
       0.990000       4.024073      -3.102916
       1.000000       3.977055      -3.026411
       1.010000       3.944307      -2.944843
       1.020000       3.940178      -2.949537
       1.030000       3.951623      -3.011937
       1.040000       3.985769      -3.129323
       1.050000       4.034787      -3.237801
       1.060000       4.103155      -3.300927
       1.070000       4.178315      -3.286960
       1.080000       4.248285      -3.223024
       1.090000       4.297852      -3.161470
       1.100000       4.330832      -3.118384
       1.110000       4.374145      -3.051329
       1.120000       4.402412      -3.009814
       1.130000       4.417992      -2.994319
       1.140000       4.421268      -3.005642
       1.150000       4.409246      -3.047763
       1.160000       4.380628      -3.122043
       1.170000       4.327007      -3.241717
       1.180000       4.249333      -3.386373
       1.190000       4.149101      -3.504873
       1.200000       4.058272      -3.510805
       1.210000       3.985220      -3.407932
       1.220000       3.941762      -3.285780
       1.230000       3.916925      -3.192754
       1.240000       3.929277      -3.251945
       1.250000       3.975161      -3.410441
       1.260000       4.051039      -3.548486
       1.270000       4.138532      -3.570724
       1.280000       4.228690      -3.491992
       1.290000       4.297901      -3.388523
       1.300000       4.345888      -3.304238
       1.310000       4.381296      -3.237463
       1.320000       4.414929      -3.171456
       1.330000       4.438341      -3.127230
       1.340000       4.437223      -3.136201
       1.350000       4.429684      -3.158332
       1.360000       4.416991      -3.190971
       1.370000       4.399747      -3.233335
       1.380000       4.380295      -3.279337
       1.390000       4.340479      -3.365740
       1.400000       4.271959      -3.494774
       1.410000       4.189828      -3.610798
       1.420000       4.113829      -3.664253
       1.430000       4.036415      -3.636065
       1.440000       3.958245      -3.479720
       1.450000       3.897547      -3.236367
       1.460000       3.866094      -3.057800
       1.470000       3.876383      -3.127731
       1.480000       3.916580      -3.343816
       1.490000       3.991887      -3.595342
       1.500000       4.077906      -3.704803
       1.510000       4.150376      -3.697932
       1.520000       4.223651      -3.630341
       1.530000       4.282697      -3.546865
       1.540000       4.319526      -3.488182
       1.550000       4.340516      -3.454019
       1.560000       4.352685      -3.436085
       1.570000       4.358030      -3.431879
       1.580000       4.360736      -3.432648
       1.590000       4.350990      -3.458212
       1.600000       4.328170      -3.509005
       1.610000       4.295589      -3.575092
       1.620000       4.244660      -3.663391
       1.630000       4.179636      -3.748447
       1.640000       4.101733      -3.792584
       1.650000       4.021323      -3.743128
       1.660000       3.946186      -3.567466
       1.670000       3.891955      -3.336823
       1.680000       3.878625      -3.271160
       1.690000       3.905610      -3.427909
       1.700000       3.967400      -3.674017
       1.710000       4.044394      -3.829441
       1.720000       4.130279      -3.863579
       1.730000       4.223235      -3.791414
       1.740000       4.319929      -3.643093
       1.750000       4.403670      -3.478900
       1.760000       4.457084      -3.367130
       1.770000       4.488298      -3.302681
       1.780000       4.510734      -3.256708
       1.790000       4.525579      -3.227965
       1.800000       4.532414      -3.217829
       1.810000       4.519732      -3.253119
       1.820000       4.479991      -3.352058
       1.830000       4.418688      -3.495977
       1.840000       4.337988      -3.670558
       1.850000       4.262698      -3.810319
       1.860000       4.180232      -3.920659
       1.870000       4.088840      -3.961284
       1.880000       4.001288      -3.874147
       1.890000       3.941240      -3.710966
       1.900000       3.913150      -3.597518
       1.910000       3.922759      -3.643023
       1.920000       3.969756      -3.810021
       1.930000       4.033786      -3.938418
       1.940000       4.105110      -3.980864
       1.950000       4.176972      -3.947199
       1.960000       4.248021      -3.862651
       1.970000       4.310815      -3.758702
       1.980000       4.355749      -3.671228
       1.990000       4.376480      -3.626898
       2.000000       4.381504      -3.613870
       2.010000       4.398394      -3.575263
       2.020000       4.408003      -3.551371
       2.030000       4.400854      -3.563390
       2.040000       4.379433      -3.604853
       2.050000       4.338184      -3.684430
       2.060000       4.276039      -3.792966
       2.070000       4.197881      -3.898369
       2.080000       4.120248      -3.948289
       2.090000       4.044593      -3.916917
       2.100000       3.967513      -3.766783
       2.110000       3.927331      -3.621909
       2.120000       3.911936      -3.548403
       2.130000       3.931730      -3.627498
       2.140000       3.990718      -3.801279
       2.150000       4.069131      -3.899472
       2.160000       4.155380      -3.884752
       2.170000       4.239169      -3.788729
       2.180000       4.301247      -3.682081
       2.190000       4.355458      -3.571137
       2.200000       4.408331      -3.452096
       2.210000       4.445780      -3.360685
       2.220000       4.472331      -3.291529
       2.230000       4.485019      -3.253388
       2.240000       4.478569      -3.258681
       2.250000       4.449637      -3.314642
       2.260000       4.396611      -3.421411
       2.270000       4.319856      -3.566285
       2.280000       4.231491      -3.700740
       2.290000       4.137547      -3.779161
       2.300000       4.032330      -3.735315
       2.310000       3.951910      -3.546765
       2.320000       3.908178      -3.361842
       2.330000       3.905962      -3.343876
       2.340000       3.935853      -3.468146
       2.350000       3.981031      -3.602923
       2.360000       4.040357      -3.699957
       2.370000       4.098152      -3.725634
       2.380000       4.147509      -3.705229
       2.390000       4.191269      -3.661012
       2.400000       4.222720      -3.613180
       2.410000       4.252377      -3.558865
       2.420000       4.262939      -3.530341
       2.430000       4.253524      -3.531556
       2.440000       4.238570      -3.539833
       2.450000       4.217754      -3.555097
       2.460000       4.186934      -3.577731
       2.470000       4.143950      -3.597391
       2.480000       4.093198      -3.596278
       2.490000       4.051448      -3.566735
       2.500000       4.003697      -3.493204
       2.510000       3.960762      -3.379053
       2.520000       3.943564      -3.313559
       2.530000       3.955011      -3.345264
       2.540000       3.989747      -3.433180
       2.550000       4.046494      -3.515072
       2.560000       4.103091      -3.534850
       2.570000       4.159623      -3.506809
       2.580000       4.208172      -3.455244
       2.590000       4.253476      -3.387638
       2.600000       4.287635      -3.324577
       2.610000       4.314884      -3.268630
       2.620000       4.338885      -3.214455
       2.630000       4.353986      -3.175823
       2.640000       4.369373      -3.137276
       2.650000       4.380683      -3.107301
       2.660000       4.382829      -3.096765
       2.670000       4.371273      -3.114561
       2.680000       4.354696      -3.144514
       2.690000       4.320104      -3.210432
       2.700000       4.259502      -3.315241
       2.710000       4.189872      -3.407140
       2.720000       4.119588      -3.454932
       2.730000       4.040374      -3.426571
       2.740000       3.954249      -3.248860
       2.750000       3.886260      -2.952449
       2.760000       3.860186      -2.794157
       2.770000       3.889226      -2.980725
       2.780000       3.953112      -3.263804
       2.790000       4.036963      -3.446462
       2.800000       4.123003      -3.482343
       2.810000       4.208388      -3.418873
       2.820000       4.290180      -3.300944
       2.830000       4.354834      -3.183199
       2.840000       4.392792      -3.110159
       2.850000       4.416901      -3.064698
       2.860000       4.435995      -3.030567
       2.870000       4.442895      -3.020389
       2.880000       4.438952      -3.032654
       2.890000       4.427185      -3.060549
       2.900000       4.383387      -3.158807
       2.910000       4.330199      -3.269053
       2.920000       4.255559      -3.400882
       2.930000       4.163919      -3.510585
       2.940000       4.067540      -3.527262
       2.950000       3.968488      -3.373007
       2.960000       3.898299      -3.102384
       2.970000       3.861350      -2.886330
       2.980000       3.871998      -2.958955
       2.990000       3.935828      -3.282439
       3.000000       4.024228      -3.511305
       3.010000       4.111056      -3.567210
       3.020000       4.188798      -3.523013
       3.030000       4.246846      -3.450337
       3.040000       4.301401      -3.360649
       3.050000       4.335665      -3.296313
       3.060000       4.354191      -3.260236
       3.070000       4.354600      -3.261918
       3.080000       4.352434      -3.265914
       3.090000       4.337125      -3.293585
       3.100000       4.323553      -3.314190
       3.110000       4.313312      -3.327383
       3.120000       4.293214      -3.357149
       3.130000       4.261951      -3.400736
       3.140000       4.206253      -3.468188
       3.150000       4.141302      -3.513679
       3.160000       4.074405      -3.508166
       3.170000       4.018946      -3.445004
       3.180000       3.978179      -3.354662
       3.190000       3.947721      -3.255692
       3.200000       3.949343      -3.252117
       3.210000       3.983148      -3.342191
       3.220000       4.033777      -3.426289
       3.230000       4.089191      -3.461106
       3.240000       4.156163      -3.441894
       3.250000       4.226218      -3.370510
       3.260000       4.272894      -3.301854
       3.270000       4.302351      -3.250627
       3.280000       4.303739      -3.245128
       3.290000       4.283755      -3.275445
       3.300000       4.249249      -3.326947
       3.310000       4.203904      -3.383755
       3.320000       4.151626      -3.427873
       3.330000       4.088904      -3.438082
       3.340000       4.034398      -3.397184
       3.350000       3.986632      -3.312318
       3.360000       3.951675      -3.212091
       3.370000       3.949045      -3.199851
       3.380000       3.978867      -3.283516
       3.390000       4.025925      -3.370139
       3.400000       4.073300      -3.410206
       3.410000       4.115248      -3.414345
       3.420000       4.163823      -3.388925
       3.430000       4.198843      -3.352588
       3.440000       4.212497      -3.330005
       3.450000       4.216873      -3.316710
       3.460000       4.207188      -3.321234
       3.470000       4.172697      -3.348081
       3.480000       4.118174      -3.371013
       3.490000       4.062143      -3.351915
       3.500000       4.022005      -3.299720
       3.510000       3.989403      -3.229567
       3.520000       3.956748      -3.131122
       3.530000       3.939848      -3.061917
       3.540000       3.948863      -3.083028
       3.550000       3.979740      -3.163724
       3.560000       4.034442      -3.254566
       3.570000       4.102111      -3.282449
       3.580000       4.175094      -3.235719
       3.590000       4.240101      -3.145356
       3.600000       4.285760      -3.059038
       3.610000       4.315889      -2.992896
       3.620000       4.327983      -2.959020
       3.630000       4.330194      -2.944670
       3.640000       4.306488      -2.981345
       3.650000       4.264807      -3.044180
       3.660000       4.205635      -3.117473
       3.670000       4.137835      -3.166052
       3.680000       4.073132      -3.160618
       3.690000       4.012905      -3.093170
       3.700000       3.963994      -2.977302
       3.710000       3.935575      -2.877046
       3.720000       3.941523      -2.897758
       3.730000       3.970307      -2.985861
       3.740000       4.007093      -3.064695
       3.750000       4.045958      -3.117233
       3.760000       4.106344      -3.144050
       3.770000       4.184757      -3.101337
       3.780000       4.259154      -3.004531
       3.790000       4.319269      -2.897517
       3.800000       4.369664      -2.793724
       3.810000       4.402425      -2.721197
       3.820000       4.431071      -2.656541
       3.830000       4.452196      -2.609106
       3.840000       4.461682      -2.586969
       3.850000       4.456946      -2.596089
       3.860000       4.437581      -2.637472
       3.870000       4.394897      -2.730816
       3.880000       4.339857      -2.841843
       3.890000       4.266396      -2.970109
       3.900000       4.171234      -3.085944
       3.910000       4.078518      -3.106817
       3.920000       3.984866      -2.978859
       3.930000       3.921902      -2.765136
       3.940000       3.882199      -2.559004
       3.950000       3.887610      -2.587264
       3.960000       3.936731      -2.813499
       3.970000       4.017170      -3.020367
       3.980000       4.098138      -3.077967
       3.990000       4.172795      -3.040112
       4.000000       4.245529      -2.944787
       4.010000       4.317435      -2.814025
       4.020000       4.368047      -2.702402
       4.030000       4.385578      -2.655787
       4.040000       4.398735      -2.615750
       4.050000       4.396683      -2.609042
       4.060000       4.399436      -2.595296
       4.070000       4.398487      -2.590058
       4.080000       4.392514      -2.596409
       4.090000       4.381205      -2.616735
       4.100000       4.361523      -2.653157
       4.110000       4.333761      -2.704562
       4.120000       4.308153      -2.748293
       4.130000       4.281285      -2.791263
       4.140000       4.248245      -2.837691
       4.150000       4.211872      -2.883889
       4.160000       4.171625      -2.922487
       4.170000       4.140189      -2.937658
       4.180000       4.107620      -2.937917
       4.190000       4.086244      -2.926586
       4.200000       4.068957      -2.911730
       4.210000       4.058933      -2.900634
       4.220000       4.058488      -2.896734
       4.230000       4.069205      -2.901485
       4.240000       4.081732      -2.906546
       4.250000       4.097992      -2.912365
       4.260000       4.107275      -2.914549
       4.270000       4.101467      -2.916269
       4.280000       4.097755      -2.915976
       4.290000       4.112364      -2.913271
       4.300000       4.120418      -2.908124
       4.310000       4.128739      -2.901580
       4.320000       4.138374      -2.893186
       4.330000       4.153604      -2.880957
