# WINDOW NO. 1  SKIP = 5
# TIME DISTANCE ENERGY
       0.010000       7.441404       2.900023
       0.020000       7.370294       2.831749
       0.030000       7.284815       2.759381
       0.040000       7.187421       2.688486
       0.050000       7.081592       2.631035
       0.060000       6.971446       2.589152
       0.070000       6.861211       2.565193
       0.080000       6.747280       2.556904
       0.090000       6.639191       2.564453
       0.100000       6.540067       2.587579
       0.110000       6.428466       2.632408
       0.120000       6.325997       2.689969
       0.130000       6.234086       2.755680
       0.140000       6.140237       2.834698
       0.150000       6.055257       2.915434
       0.160000       5.984325       2.987170
       0.170000       5.930921       3.041938
       0.180000       5.882569       3.087314
       0.190000       5.842586       3.120801
       0.200000       5.807845       3.143436
       0.210000       5.774819       3.170912
       0.220000       5.743295       3.199429
       0.230000       5.712971       3.226331
       0.240000       5.684460       3.248541
       0.250000       5.661653       3.257784
       0.260000       5.647347       3.257469
       0.270000       5.636423       3.254080
       0.280000       5.640358       3.225267
       0.290000       5.647698       3.186554
       0.300000       5.662404       3.129663
       0.310000       5.686482       3.060032
       0.320000       5.718274       2.983917
       0.330000       5.767391       2.882199
       0.340000       5.831205       2.769737
       0.350000       5.895095       2.663671
       0.360000       5.964074       2.554183
       0.370000       6.034644       2.448128
       0.380000       6.109762       2.344506
       0.390000       6.178337       2.255421
       0.400000       6.252252       2.169878
       0.410000       6.343772       2.077135
       0.420000       6.438252       1.990090
       0.430000       6.535257       1.911741
       0.440000       6.647068       1.843042
       0.450000       6.771749       1.795026
       0.460000       6.896000       1.772364
       0.470000       7.014643       1.776983
       0.480000       7.135524       1.805952
       0.490000       7.247945       1.853969
       0.500000       7.362316       1.926191
       0.510000       7.474729       2.018236
       0.520000       7.579644       2.126506
       0.530000       7.674689       2.236565
       0.540000       7.744038       2.321411
       0.550000       7.794393       2.382668
       0.560000       7.831420       2.429357
       0.570000       7.869998       2.484448
       0.580000       7.893120       2.511527
       0.590000       7.894454       2.497915
       0.600000       7.879011       2.450276
       0.610000       7.846941       2.370225
       0.620000       7.810022       2.283781
       0.630000       7.772960       2.198875
       0.640000       7.734022       2.113317
       0.650000       7.684459       2.012668
       0.660000       7.628374       1.907685
       0.670000       7.547323       1.775692
       0.680000       7.454771       1.641564
       0.690000       7.357193       1.515740
       0.700000       7.252017       1.400561
       0.710000       7.137241       1.302888
       0.720000       7.017944       1.227167
       0.730000       6.889968       1.172637
       0.740000       6.745841       1.147600
       0.750000       6.606513       1.152037
       0.760000       6.462944       1.191100
       0.770000       6.327123       1.254504
       0.780000       6.208527       1.327291
       0.790000       6.103691       1.406788
       0.800000       6.010640       1.487519
       0.810000       5.933497       1.556993
       0.820000       5.872901       1.609612
       0.830000       5.831402       1.641025
       0.840000       5.815969       1.639074
       0.850000       5.823129       1.607170
       0.860000       5.847253       1.550451
       0.870000       5.886393       1.474898
       0.880000       5.931516       1.392198
       0.890000       5.982939       1.308595
       0.900000       6.028560       1.234599
       0.910000       6.084664       1.150518
       0.920000       6.159657       1.050612
       0.930000       6.236769       0.956760
       0.940000       6.315271       0.870602
       0.950000       6.408814       0.785456
       0.960000       6.510090       0.709177
       0.970000       6.623766       0.642372
       0.980000       6.734073       0.596697
       0.990000       6.840358       0.572019
       1.000000       6.944014       0.565456
       1.010000       7.044176       0.574449
       1.020000       7.136439       0.595799
       1.030000       7.223038       0.625745
       1.040000       7.300643       0.663188
       1.050000       7.382640       0.714362
       1.060000       7.462600       0.774032
       1.070000       7.538074       0.841558
       1.080000       7.615495       0.923149
       1.090000       7.685406       1.005661
       1.100000       7.746132       1.083651
       1.110000       7.796819       1.149225
       1.120000       7.828064       1.185828
       1.130000       7.851356       1.209600
       1.140000       7.871689       1.228750
       1.150000       7.881507       1.231430
       1.160000       7.878908       1.213440
       1.170000       7.854189       1.155420
       1.180000       7.812607       1.069008
       1.190000       7.760936       0.970086
       1.200000       7.706793       0.873769
       1.210000       7.649622       0.779434
       1.220000       7.601023       0.703132
       1.230000       7.538112       0.612949
       1.240000       7.477596       0.534316
       1.250000       7.430759       0.477203
       1.260000       7.390425       0.428352
       1.270000       7.344792       0.377826
       1.280000       7.293998       0.328926
       1.290000       7.230322       0.276009
       1.300000       7.162458       0.227103
       1.310000       7.088100       0.183891
       1.320000       7.015117       0.150166
       1.330000       6.943050       0.124367
       1.340000       6.876582       0.108980
       1.350000       6.819130       0.101933
       1.360000       6.757758       0.101530
       1.370000       6.697874       0.106689
       1.380000       6.647492       0.114962
       1.390000       6.592498       0.128208
       1.400000       6.531156       0.149480
       1.410000       6.476451       0.172390
       1.420000       6.441468       0.185399
       1.430000       6.415215       0.193051
       1.440000       6.398956       0.196324
       1.450000       6.391946       0.193534
       1.460000       6.384336       0.192029
       1.470000       6.366429       0.200150
       1.480000       6.348672       0.209771
       1.490000       6.341349       0.211372
       1.500000       6.337330       0.212036
       1.510000       6.325964       0.218544
       1.520000       6.320756       0.218792
       1.530000       6.316203       0.216840
       1.540000       6.306711       0.217322
       1.550000       6.294234       0.221384
       1.560000       6.291373       0.217531
       1.570000       6.307180       0.198028
       1.580000       6.331379       0.172648
       1.590000       6.354191       0.149491
       1.600000       6.383226       0.122474
       1.610000       6.418361       0.092643
       1.620000       6.465034       0.058012
       1.630000       6.515185       0.023957
       1.640000       6.559801      -0.004388
       1.650000       6.598400      -0.028555
       1.660000       6.635128      -0.049204
       1.670000       6.666832      -0.068627
       1.680000       6.702634      -0.087954
       1.690000       6.737874      -0.103724
       1.700000       6.777575      -0.117130
       1.710000       6.815735      -0.129444
       1.720000       6.859232      -0.138759
       1.730000       6.909420      -0.142588
       1.740000       6.974282      -0.138167
       1.750000       7.032246      -0.127143
       1.760000       7.070071      -0.119772
       1.770000       7.100729      -0.113644
       1.780000       7.131543      -0.104896
       1.790000       7.162763      -0.094067
       1.800000       7.195740      -0.080251
       1.810000       7.213607      -0.074083
       1.820000       7.220895      -0.075477
       1.830000       7.221449      -0.080652
       1.840000       7.213773      -0.092019
       1.850000       7.212281      -0.098942
       1.860000       7.208680      -0.106722
       1.870000       7.196959      -0.119363
       1.880000       7.178189      -0.134772
       1.890000       7.163485      -0.146850
       1.900000       7.144135      -0.160415
       1.910000       7.126873      -0.172095
       1.920000       7.110092      -0.182168
       1.930000       7.086028      -0.195015
       1.940000       7.052585      -0.210113
       1.950000       7.024356      -0.220794
       1.960000       6.991445      -0.231630
       1.970000       6.954839      -0.241278
       1.980000       6.919357      -0.246971
       1.990000       6.876217      -0.250111
       2.000000       6.837275      -0.249346
       2.010000       6.828049      -0.246675
       2.020000       6.831522      -0.243544
       2.030000       6.830279      -0.240098
       2.040000       6.825974      -0.236016
       2.050000       6.818356      -0.231877
       2.060000       6.804134      -0.227308
       2.070000       6.783103      -0.222718
       2.080000       6.763279      -0.217580
       2.090000       6.746710      -0.211159
       2.100000       6.725681      -0.202874
       2.110000       6.721749      -0.196940
       2.120000       6.718413      -0.190591
       2.130000       6.714654      -0.183397
       2.140000       6.723622      -0.178046
       2.150000       6.744856      -0.174192
       2.160000       6.775627      -0.171041
       2.170000       6.803326      -0.166257
       2.180000       6.822872      -0.160375
       2.190000       6.846024      -0.152776
       2.200000       6.881487      -0.142762
       2.210000       6.919408      -0.129817
       2.220000       6.964812      -0.112504
       2.230000       7.014683      -0.090130
       2.240000       7.061361      -0.064015
       2.250000       7.099532      -0.037586
       2.260000       7.132201      -0.011412
       2.270000       7.151979       0.009436
       2.280000       7.162513       0.025914
       2.290000       7.172582       0.041955
       2.300000       7.169089       0.048624
       2.310000       7.168463       0.057490
       2.320000       7.174936       0.069192
       2.330000       7.182640       0.081001
       2.340000       7.190385       0.091826
       2.350000       7.188721       0.097821
       2.360000       7.183375       0.101995
       2.370000       7.162892       0.097277
       2.380000       7.127682       0.086137
       2.390000       7.085048       0.074919
       2.400000       7.036815       0.067157
       2.410000       7.002759       0.068853
       2.420000       6.961644       0.070502
       2.430000       6.912755       0.075014
       2.440000       6.860960       0.083704
       2.450000       6.807833       0.095844
       2.460000       6.761365       0.111341
       2.470000       6.722400       0.130196
       2.480000       6.682162       0.149636
       2.490000       6.643821       0.168207
       2.500000       6.592080       0.193736
       2.510000       6.538340       0.224969
       2.520000       6.494307       0.255447
       2.530000       6.461974       0.280812
       2.540000       6.439113       0.301460
       2.550000       6.422559       0.320188
       2.560000       6.407940       0.336867
       2.570000       6.399666       0.349959
       2.580000       6.386146       0.364598
       2.590000       6.380268       0.375020
       2.600000       6.379083       0.383565
       2.610000       6.388163       0.384445
       2.620000       6.415140       0.374742
       2.630000       6.443023       0.365793
       2.640000       6.483179       0.349629
       2.650000       6.537340       0.328426
       2.660000       6.599294       0.308362
       2.670000       6.663219       0.294073
       2.680000       6.743963       0.281269
       2.690000       6.819281       0.276741
       2.700000       6.881663       0.278644
       2.710000       6.946843       0.286577
       2.720000       7.011467       0.300022
       2.730000       7.064264       0.315430
       2.740000       7.103375       0.328942
       2.750000       7.135322       0.341357
       2.760000       7.166875       0.353672
       2.770000       7.191723       0.362122
       2.780000       7.211898       0.371372
       2.790000       7.223136       0.377223
       2.800000       7.227160       0.378760
       2.810000       7.231129       0.380539
       2.820000       7.228608       0.375946
       2.830000       7.211801       0.360616
       2.840000       7.184487       0.337501
       2.850000       7.153890       0.312938
       2.860000       7.127002       0.290466
       2.870000       7.100974       0.272526
       2.880000       7.072734       0.256724
       2.890000       7.050348       0.246220
       2.900000       7.009300       0.228822
       2.910000       6.961448       0.213384
       2.920000       6.897413       0.200653
       2.930000       6.824755       0.194677
       2.940000       6.752918       0.196025
       2.950000       6.679190       0.203388
       2.960000       6.610936       0.216997
       2.970000       6.548640       0.237159
       2.980000       6.494468       0.261068
       2.990000       6.458176       0.278138
       3.000000       6.437184       0.287879
       3.010000       6.421162       0.295539
       3.020000       6.400830       0.307925
       3.030000       6.368922       0.330291
       3.040000       6.347499       0.346312
       3.050000       6.327951       0.361542
       3.060000       6.314554       0.371515
       3.070000       6.306513       0.375458
       3.080000       6.317622       0.366929
       3.090000       6.335755       0.355402
       3.100000       6.373007       0.333290
       3.110000       6.427973       0.302214
       3.120000       6.488735       0.272842
       3.130000       6.547362       0.251985
       3.140000       6.591375       0.242676
       3.150000       6.637426       0.236079
       3.160000       6.689770       0.230015
       3.170000       6.745962       0.227991
       3.180000       6.801996       0.229844
       3.190000       6.846482       0.237061
       3.200000       6.897130       0.249747
       3.210000       6.946346       0.265448
       3.220000       7.003131       0.286832
       3.230000       7.065884       0.313148
       3.240000       7.133550       0.347139
       3.250000       7.199197       0.385368
       3.260000       7.249822       0.419170
       3.270000       7.289575       0.450098
       3.280000       7.309594       0.469430
       3.290000       7.321642       0.484271
       3.300000       7.334176       0.498702
       3.310000       7.340392       0.507274
       3.320000       7.335536       0.505392
       3.330000       7.316150       0.491897
       3.340000       7.291207       0.473779
       3.350000       7.256262       0.447714
       3.360000       7.217846       0.422278
       3.370000       7.187812       0.406340
       3.380000       7.165831       0.398105
       3.390000       7.134359       0.386063
       3.400000       7.096716       0.371592
       3.410000       7.051185       0.355005
       3.420000       7.011396       0.344137
       3.430000       6.957726       0.333910
       3.440000       6.888249       0.329859
       3.450000       6.818306       0.335038
       3.460000       6.742631       0.348399
       3.470000       6.655551       0.375087
       3.480000       6.563361       0.414298
       3.490000       6.478824       0.462601
       3.500000       6.410707       0.513136
       3.510000       6.351250       0.564152
       3.520000       6.283603       0.627710
       3.530000       6.212997       0.701476
       3.540000       6.149642       0.774365
       3.550000       6.089290       0.848772
       3.560000       6.031485       0.923994
       3.570000       5.982787       0.994265
       3.580000       5.943244       1.057392
       3.590000       5.912088       1.111999
       3.600000       5.889928       1.155483
       3.610000       5.875649       1.186754
       3.620000       5.869323       1.206287
       3.630000       5.884635       1.196005
       3.640000       5.913918       1.165300
       3.650000       5.954824       1.121530
       3.660000       6.008104       1.065062
       3.670000       6.065953       1.005506
       3.680000       6.131982       0.939908
       3.690000       6.203660       0.872036
       3.700000       6.276374       0.809878
       3.710000       6.356276       0.750186
       3.720000       6.449021       0.689605
       3.730000       6.538963       0.645727
       3.740000       6.619418       0.618673
       3.750000       6.691582       0.599918
       3.760000       6.767214       0.588035
       3.770000       6.849265       0.586278
       3.780000       6.934065       0.596748
       3.790000       7.021052       0.621929
       3.800000       7.105409       0.659756
       3.810000       7.187701       0.707756
       3.820000       7.265915       0.763218
       3.830000       7.332937       0.817882
       3.840000       7.397933       0.879203
       3.850000       7.455980       0.941599
       3.860000       7.509814       1.005723
       3.870000       7.554994       1.061890
       3.880000       7.593560       1.114730
       3.890000       7.619501       1.153782
       3.900000       7.643438       1.190665
       3.910000       7.671178       1.234955
       3.920000       7.689492       1.267217
       3.930000       7.705366       1.297456
       3.940000       7.708905       1.307840
       3.950000       7.696448       1.291344
       3.960000       7.672983       1.259778
       3.970000       7.648802       1.228942
       3.980000       7.611819       1.183031
       3.990000       7.568946       1.132709
       4.000000       7.522105       1.083429
       4.010000       7.474014       1.036966
       4.020000       7.410948       0.981224
       4.030000       7.326216       0.911585
       4.040000       7.251284       0.863912
       4.050000       7.180027       0.827592
       4.060000       7.117537       0.801228
       4.070000       7.052270       0.780098
       4.080000       6.975613       0.762605
       4.090000       6.899069       0.752370
       4.100000       6.830892       0.752687
       4.110000       6.765081       0.759955
       4.120000       6.698681       0.775078
       4.130000       6.638211       0.795197
       4.140000       6.586340       0.819436
       4.150000       6.533000       0.845463
       4.160000       6.487762       0.871285
       4.170000       6.445552       0.901251
       4.180000       6.414737       0.929251
       4.190000       6.390484       0.954496
       4.200000       6.363277       0.981387
       4.210000       6.343018       1.000962
       4.220000       6.325230       1.018210
       4.230000       6.308120       1.034066
       4.240000       6.287392       1.051684
       4.250000       6.274861       1.059987
       4.260000       6.260161       1.070689
       4.270000       6.246687       1.080852
       4.280000       6.237153       1.089439
       4.290000       6.247767       1.082465
       4.300000       6.274228       1.063182
       4.310000       6.316741       1.032376
       4.320000       6.354937       1.007647
       4.330000       6.399684       0.979846
