# WINDOW NO. 1  SKIP = 5
# TIME DISTANCE ENERGY
       0.010000       7.885093       2.787742
       0.020000       7.821435       2.801476
       0.030000       7.754846       2.822111
       0.040000       7.689188       2.846439
       0.050000       7.622656       2.879647
       0.060000       7.560258       2.915197
       0.070000       7.501178       2.952371
       0.080000       7.439348       2.993332
       0.090000       7.385341       3.029664
       0.100000       7.340450       3.062383
       0.110000       7.291144       3.102855
       0.120000       7.257578       3.129218
       0.130000       7.242548       3.136459
       0.140000       7.231052       3.139442
       0.150000       7.230553       3.128823
       0.160000       7.248432       3.094034
       0.170000       7.283895       3.038106
       0.180000       7.328523       2.968243
       0.190000       7.380641       2.891342
       0.200000       7.438366       2.809044
       0.210000       7.495796       2.739240
       0.220000       7.552202       2.678479
       0.230000       7.600523       2.627973
       0.240000       7.642102       2.582798
       0.250000       7.682194       2.536646
       0.260000       7.723256       2.496211
       0.270000       7.758389       2.462904
       0.280000       7.800650       2.427426
       0.290000       7.838835       2.391374
       0.300000       7.873040       2.351564
       0.310000       7.905677       2.315284
       0.320000       7.934034       2.285532
       0.330000       7.967244       2.256121
       0.340000       8.002600       2.236520
       0.350000       8.029126       2.220295
       0.360000       8.051849       2.203260
       0.370000       8.066012       2.185088
       0.380000       8.073815       2.167083
       0.390000       8.067256       2.146636
       0.400000       8.058406       2.127905
       0.410000       8.060227       2.110577
       0.420000       8.057807       2.087921
       0.430000       8.054925       2.061866
       0.440000       8.061136       2.037659
       0.450000       8.078522       2.018572
       0.460000       8.097459       2.000418
       0.470000       8.112995       1.984835
       0.480000       8.135644       1.971228
       0.490000       8.154678       1.956641
       0.500000       8.179089       1.945007
       0.510000       8.204683       1.933483
       0.520000       8.229353       1.925790
       0.530000       8.253870       1.915542
       0.540000       8.259812       1.895278
       0.550000       8.255243       1.869182
       0.560000       8.245505       1.844858
       0.570000       8.248726       1.831137
       0.580000       8.246373       1.813108
       0.590000       8.231240       1.788292
       0.600000       8.210674       1.758953
       0.610000       8.184265       1.725417
       0.620000       8.163630       1.695860
       0.630000       8.152330       1.670044
       0.640000       8.148409       1.647161
       0.650000       8.142433       1.621850
       0.660000       8.138169       1.597621
       0.670000       8.116646       1.566672
       0.680000       8.088958       1.533309
       0.690000       8.061471       1.498752
       0.700000       8.029629       1.463891
       0.710000       7.991441       1.433174
       0.720000       7.950581       1.405404
       0.730000       7.902834       1.378794
       0.740000       7.839371       1.359099
       0.750000       7.781340       1.342706
       0.760000       7.719123       1.336075
       0.770000       7.664371       1.332422
       0.780000       7.623946       1.325495
       0.790000       7.593883       1.317813
       0.800000       7.572088       1.307759
       0.810000       7.562288       1.289138
       0.820000       7.564407       1.261195
       0.830000       7.580684       1.225129
       0.840000       7.617561       1.178308
       0.850000       7.671345       1.126586
       0.860000       7.736085       1.074325
       0.870000       7.808535       1.028513
       0.880000       7.879589       0.991656
       0.890000       7.948077       0.968890
       0.900000       8.001501       0.952902
       0.910000       8.056565       0.941769
       0.920000       8.121364       0.939241
       0.930000       8.178314       0.941849
       0.940000       8.227525       0.947159
       0.950000       8.283298       0.963884
       0.960000       8.338808       0.986467
       0.970000       8.399819       1.017971
       0.980000       8.448751       1.044959
       0.990000       8.487086       1.066635
       1.000000       8.516606       1.081105
       1.010000       8.537945       1.086339
       1.020000       8.546763       1.076868
       1.030000       8.547703       1.055782
       1.040000       8.537568       1.023430
       1.050000       8.531572       0.994649
       1.060000       8.523168       0.961800
       1.070000       8.511344       0.927111
       1.080000       8.504249       0.898661
       1.090000       8.494073       0.868321
       1.100000       8.479592       0.835179
       1.110000       8.459205       0.794680
       1.120000       8.425462       0.743734
       1.130000       8.390869       0.694233
       1.140000       8.361246       0.650935
       1.150000       8.329463       0.610452
       1.160000       8.294194       0.572249
       1.170000       8.246181       0.529925
       1.180000       8.191177       0.489046
       1.190000       8.135783       0.454944
       1.200000       8.087065       0.430016
       1.210000       8.044583       0.411758
       1.220000       8.019661       0.399640
       1.230000       7.989261       0.387980
       1.240000       7.969498       0.380118
       1.250000       7.971155       0.374435
       1.260000       7.986580       0.367741
       1.270000       8.003175       0.361793
       1.280000       8.020221       0.358482
       1.290000       8.028715       0.354610
       1.300000       8.036354       0.349910
       1.310000       8.039854       0.344976
       1.320000       8.046245       0.340048
       1.330000       8.053971       0.334049
       1.340000       8.066090       0.330364
       1.350000       8.086033       0.330227
       1.360000       8.100435       0.329833
       1.370000       8.113578       0.329140
       1.380000       8.132221       0.330998
       1.390000       8.141244       0.328921
       1.400000       8.137812       0.322435
       1.410000       8.134635       0.315703
       1.420000       8.144393       0.311879
       1.430000       8.155235       0.307262
       1.440000       8.167625       0.304982
       1.450000       8.180913       0.303369
       1.460000       8.185564       0.298763
       1.470000       8.172292       0.288103
       1.480000       8.150864       0.275582
       1.490000       8.132141       0.264451
       1.500000       8.109011       0.254071
       1.510000       8.070571       0.240789
       1.520000       8.032000       0.228739
       1.530000       7.987718       0.217246
       1.540000       7.932692       0.207935
       1.550000       7.870107       0.206287
       1.560000       7.813368       0.210514
       1.570000       7.771835       0.215426
       1.580000       7.736748       0.221386
       1.590000       7.698925       0.231249
       1.600000       7.666182       0.240926
       1.610000       7.639186       0.249275
       1.620000       7.622993       0.252626
       1.630000       7.610777       0.253076
       1.640000       7.594572       0.255865
       1.650000       7.574864       0.260395
       1.660000       7.555857       0.265735
       1.670000       7.535447       0.270574
       1.680000       7.523387       0.268985
       1.690000       7.515417       0.265814
       1.700000       7.516785       0.256054
       1.710000       7.521671       0.242008
       1.720000       7.537335       0.220146
       1.730000       7.566192       0.190826
       1.740000       7.615855       0.150619
       1.750000       7.665473       0.116818
       1.760000       7.701047       0.092835
       1.770000       7.735208       0.071382
       1.780000       7.776257       0.050846
       1.790000       7.824334       0.032081
       1.800000       7.880454       0.016872
       1.810000       7.927489       0.008360
       1.820000       7.967702       0.002733
       1.830000       8.004561       0.000465
       1.840000       8.036214      -0.000887
       1.850000       8.078345       0.002630
       1.860000       8.120828       0.010173
       1.870000       8.157059       0.018847
       1.880000       8.188115       0.028807
       1.890000       8.224564       0.043915
       1.900000       8.257075       0.059825
       1.910000       8.291246       0.079047
       1.920000       8.325049       0.101099
       1.930000       8.349440       0.117843
       1.940000       8.362795       0.127042
       1.950000       8.376999       0.138074
       1.960000       8.383834       0.142938
       1.970000       8.383536       0.141893
       1.980000       8.378452       0.138301
       1.990000       8.359589       0.124557
       2.000000       8.338765       0.110737
       2.010000       8.342952       0.116666
       2.020000       8.354453       0.128806
       2.030000       8.356027       0.133507
       2.040000       8.348814       0.131875
       2.050000       8.332417       0.123328
       2.060000       8.303704       0.106662
       2.070000       8.262844       0.083133
       2.080000       8.219278       0.061314
       2.090000       8.174741       0.043797
       2.100000       8.121651       0.027707
       2.110000       8.082960       0.020951
       2.120000       8.041347       0.016974
       2.130000       7.997047       0.016740
       2.140000       7.964720       0.021168
       2.150000       7.943359       0.027764
       2.160000       7.930344       0.034511
       2.170000       7.915285       0.041616
       2.180000       7.891815       0.049627
       2.190000       7.872897       0.059085
       2.200000       7.868018       0.067728
       2.210000       7.866778       0.076355
       2.220000       7.875331       0.083987
       2.230000       7.890529       0.091257
       2.240000       7.905672       0.099684
       2.250000       7.915958       0.109245
       2.260000       7.924110       0.119136
       2.270000       7.923683       0.129406
       2.280000       7.918778       0.140129
       2.290000       7.917492       0.150378
       2.300000       7.907353       0.159609
       2.310000       7.904922       0.168991
       2.320000       7.914129       0.176372
       2.330000       7.929695       0.183047
       2.340000       7.948879       0.189121
       2.350000       7.961097       0.196512
       2.360000       7.972934       0.204588
       2.370000       7.973747       0.212011
       2.380000       7.963300       0.219342
       2.390000       7.948691       0.227814
       2.400000       7.931171       0.239005
       2.410000       7.929186       0.251707
       2.420000       7.922402       0.264114
       2.430000       7.909030       0.278049
       2.440000       7.894058       0.292747
       2.450000       7.877707       0.306936
       2.460000       7.867391       0.320249
       2.470000       7.864251       0.333892
       2.480000       7.859159       0.345662
       2.490000       7.856133       0.354263
       2.500000       7.839150       0.364953
       2.510000       7.817214       0.377895
       2.520000       7.802021       0.390024
       2.530000       7.796440       0.398795
       2.540000       7.799158       0.404998
       2.550000       7.805898       0.411570
       2.560000       7.811109       0.417429
       2.570000       7.820128       0.422882
       2.580000       7.821534       0.427948
       2.590000       7.827713       0.432925
       2.600000       7.834593       0.439232
       2.610000       7.847948       0.443981
       2.620000       7.875680       0.448353
       2.630000       7.902922       0.454451
       2.640000       7.938942       0.460387
       2.650000       7.984705       0.468784
       2.660000       8.033618       0.481304
       2.670000       8.079639       0.497902
       2.680000       8.139209       0.521103
       2.690000       8.189567       0.544190
       2.700000       8.223291       0.561135
       2.710000       8.256074       0.578633
       2.720000       8.286756       0.595240
       2.730000       8.304852       0.604317
       2.740000       8.309078       0.603852
       2.750000       8.304278       0.597066
       2.760000       8.298580       0.588041
       2.770000       8.285872       0.572984
       2.780000       8.268078       0.557822
       2.790000       8.242544       0.540747
       2.800000       8.209269       0.521336
       2.810000       8.176943       0.504732
       2.820000       8.140185       0.486521
       2.830000       8.091805       0.466237
       2.840000       8.035482       0.447133
       2.850000       7.978508       0.433084
       2.860000       7.927936       0.423587
       2.870000       7.882227       0.421251
       2.880000       7.838973       0.424261
       2.890000       7.806415       0.429749
       2.900000       7.759610       0.440073
       2.910000       7.711437       0.455689
       2.920000       7.652732       0.482049
       2.930000       7.589335       0.517693
       2.940000       7.530183       0.556166
       2.950000       7.474316       0.595340
       2.960000       7.427762       0.630781
       2.970000       7.391134       0.661920
       2.980000       7.367811       0.683376
       2.990000       7.365564       0.682454
       3.000000       7.382149       0.662090
       3.010000       7.406774       0.634687
       3.020000       7.428653       0.612450
       3.030000       7.438597       0.603231
       3.040000       7.460628       0.583409
       3.050000       7.485309       0.562240
       3.060000       7.516020       0.536517
       3.070000       7.551912       0.506816
       3.080000       7.606417       0.470423
       3.090000       7.667617       0.438326
       3.100000       7.747457       0.408998
       3.110000       7.841951       0.389202
       3.120000       7.938130       0.386642
       3.130000       8.027922       0.402470
       3.140000       8.098570       0.428281
       3.150000       8.166906       0.462942
       3.160000       8.235461       0.505321
       3.170000       8.302482       0.555837
       3.180000       8.364240       0.609417
       3.190000       8.407758       0.654271
       3.200000       8.452499       0.705489
       3.210000       8.488786       0.750569
       3.220000       8.527215       0.799998
       3.230000       8.566695       0.850568
       3.240000       8.606278       0.902584
       3.250000       8.640486       0.947844
       3.260000       8.654959       0.966874
       3.270000       8.654310       0.966614
       3.280000       8.631127       0.938250
       3.290000       8.597532       0.899317
       3.300000       8.562422       0.859664
       3.310000       8.518599       0.812155
       3.320000       8.461820       0.754562
       3.330000       8.389979       0.690813
       3.340000       8.315138       0.634044
       3.350000       8.231523       0.581506
       3.360000       8.146180       0.542491
       3.370000       8.071476       0.521748
       3.380000       8.008874       0.514622
       3.390000       7.941183       0.515277
       3.400000       7.871323       0.523561
       3.410000       7.797037       0.540653
       3.420000       7.732263       0.564701
       3.430000       7.658921       0.602107
       3.440000       7.574779       0.659790
       3.450000       7.496975       0.726376
       3.460000       7.419559       0.802960
       3.470000       7.335529       0.898681
       3.480000       7.251517       1.005404
       3.490000       7.180658       1.106466
       3.500000       7.130862       1.187275
       3.510000       7.094664       1.251431
       3.520000       7.053828       1.326038
       3.530000       7.014133       1.402750
       3.540000       6.986609       1.460856
       3.550000       6.968121       1.503910
       3.560000       6.957180       1.533342
       3.570000       6.959467       1.541542
       3.580000       6.974708       1.528655
       3.590000       7.000579       1.498569
       3.600000       7.036654       1.452482
       3.610000       7.081693       1.392323
       3.620000       7.134162       1.323410
       3.630000       7.207782       1.229459
       3.640000       7.292702       1.129013
       3.650000       7.385751       1.033726
       3.660000       7.486804       0.947611
       3.670000       7.589407       0.877981
       3.680000       7.696603       0.824187
       3.690000       7.804346       0.789283
       3.700000       7.908403       0.776208
       3.710000       8.013658       0.784316
       3.720000       8.123370       0.812886
       3.730000       8.222337       0.861174
       3.740000       8.303546       0.916837
       3.750000       8.369697       0.968856
       3.760000       8.434321       1.026736
       3.770000       8.499819       1.094209
       3.780000       8.560941       1.165255
       3.790000       8.616720       1.238351
       3.800000       8.666430       1.309791
       3.810000       8.708248       1.373288
       3.820000       8.739287       1.422028
       3.830000       8.756120       1.448258
       3.840000       8.764874       1.462691
       3.850000       8.761454       1.458922
       3.860000       8.750886       1.444581
       3.870000       8.728344       1.409995
       3.880000       8.697157       1.365607
       3.890000       8.651784       1.304762
       3.900000       8.601443       1.241058
       3.910000       8.557873       1.190945
       3.920000       8.507556       1.138166
       3.930000       8.459263       1.093470
       3.940000       8.403315       1.045574
       3.950000       8.338521       0.994920
       3.960000       8.268184       0.950112
       3.970000       8.201470       0.917362
       3.980000       8.127884       0.892373
       3.990000       8.053015       0.878240
       4.000000       7.982630       0.877645
       4.010000       7.919997       0.886315
       4.020000       7.849999       0.905519
       4.030000       7.765199       0.936607
       4.040000       7.694781       0.976334
       4.050000       7.633620       1.019040
       4.060000       7.589185       1.054186
       4.070000       7.550256       1.088391
       4.080000       7.508923       1.126476
       4.090000       7.475334       1.158118
       4.100000       7.456572       1.178992
       4.110000       7.447166       1.191325
       4.120000       7.444134       1.198534
       4.130000       7.451112       1.196330
       4.140000       7.470116       1.185328
       4.150000       7.491207       1.170133
       4.160000       7.521116       1.148688
       4.170000       7.557104       1.127412
       4.180000       7.606376       1.103000
       4.190000       7.662025       1.080130
       4.200000       7.712340       1.063921
       4.210000       7.766849       1.047974
       4.220000       7.817340       1.037532
       4.230000       7.861542       1.031479
       4.240000       7.894240       1.028307
       4.250000       7.925281       1.024317
       4.260000       7.944222       1.022191
       4.270000       7.958062       1.020797
       4.280000       7.969403       1.021364
       4.290000       7.991543       1.025631
       4.300000       8.022452       1.033363
       4.310000       8.062464       1.045400
       4.320000       8.088751       1.056769
       4.330000       8.116311       1.069183
